# dimensionless total [l(l+1)/2pi] C_l's
# for l=2 to 3000, i.e. number of multipoles equal to 2999
#
# -> if you prefer output in CAMB/HealPix/LensPix units/order, set 'format' to 'camb' in input file
# -> if you don't want to see such a header, set 'headers' to 'no' in input file
# -> for CMB lensing (phi), these are C_l^phi-phi for the lensing potential.
#    Remember the conversion factors:
#    C_l^dd (deflection) = l(l+1) C_l^phi-phi
#    C_l^gg (shear/convergence) = 1/4 (l(l+1))^2 C_l^phi-phi
#
# 1:l     2:TT                     3:phiphi                 4:TPhi               
    2       1.242533666596e-10       8.204835471198e-09       3.961275892074e-10 
    3       1.193480169184e-10       5.158349093932e-09       2.855441533523e-10 
    4       1.141252091109e-10       3.603170672476e-09       2.182189267233e-10 
    5       1.100947255197e-10       2.692252359981e-09       1.735198174311e-10 
    6       1.072928472412e-10       2.102932389683e-09       1.418672602697e-10 
    7       1.055408923512e-10       1.695395584514e-09       1.184200790885e-10 
    8       1.046050882882e-10       1.400205040600e-09       1.005341981737e-10 
    9       1.042726757686e-10       1.178840534527e-09       8.659487965505e-11 
   10       1.044468538909e-10       1.007955792703e-09       7.549148243678e-11 
   11       1.049736552265e-10       8.539182618275e-10       6.678418283805e-11 
   12       1.057546131242e-10       7.466077261782e-10       5.914345254776e-11 
   13       1.067828408725e-10       6.584405791629e-10       5.292087186526e-11 
   14       1.079714758518e-10       5.850273908019e-10       4.753238006502e-11 
   15       1.093350144619e-10       5.231862990540e-10       4.297470183767e-11 
   16       1.107720833807e-10       4.705691131034e-10       3.901335978626e-11 
   17       1.122961952205e-10       4.254020947108e-10       3.553535348468e-11 
   18       1.139258893420e-10       3.861766887239e-10       3.251157494534e-11 
   19       1.156526669697e-10       3.522746824355e-10       2.989455762695e-11 
   20       1.174129478416e-10       3.224012233194e-10       2.755946101252e-11 
   21       1.192217446011e-10       2.960899719696e-10       2.546183842585e-11 
   22       1.210893667014e-10       2.727135599569e-10       2.355857959235e-11 
   23       1.230106336816e-10       2.519609213279e-10       2.187247802364e-11 
   24       1.249569568984e-10       2.333593293222e-10       2.041576117815e-11 
   25       1.269330212993e-10       2.166583481955e-10       1.912239510443e-11 
   26       1.289413457804e-10       2.015335157004e-10       1.789526895256e-11 
   27       1.309917710710e-10       1.879072383434e-10       1.673700481100e-11 
   28       1.330806394038e-10       1.756149908031e-10       1.567631772851e-11 
   29       1.351911379614e-10       1.643592098893e-10       1.473173014784e-11 
   30       1.373293358422e-10       1.540783629657e-10       1.389466102528e-11 
   31       1.394989957093e-10       1.446967223288e-10       1.313712376145e-11 
   32       1.416945885440e-10       1.360666060599e-10       1.242483998857e-11 
   33       1.439150508647e-10       1.281412840955e-10       1.175384712480e-11 
   34       1.461527683149e-10       1.208508014271e-10       1.112609482739e-11 
   35       1.483957648742e-10       1.140869668652e-10       1.054076130274e-11 
   36       1.506519826523e-10       1.078323708532e-10       9.998687632942e-12 
   37       1.529320309543e-10       1.020675654055e-10       9.498864961280e-12 
   38       1.552420098070e-10       9.673205713473e-11       9.036849482913e-12 
   39       1.575838921866e-10       9.174614981479e-11       8.606392147536e-12 
   40       1.599582479458e-10       8.709464389478e-11       8.205778542795e-12 
   41       1.623614709766e-10       8.276533669158e-11       7.833112379977e-12 
   42       1.647843889726e-10       7.872404450571e-11       7.484379990688e-12 
   43       1.672163837339e-10       7.492725114438e-11       7.154841037913e-12 
   44       1.696605058806e-10       7.136914196352e-11       6.844131333098e-12 
   45       1.721222059264e-10       6.804612185827e-11       6.552457591343e-12 
   46       1.746048952109e-10       6.494269395465e-11       6.279098191852e-12 
   47       1.771097252757e-10       6.203053167549e-11       6.022328235732e-12 
   48       1.796366047954e-10       5.927720107444e-11       5.779996789716e-12 
   49       1.821881041383e-10       5.667740046212e-11       5.551625897017e-12 
   50       1.847662723967e-10       5.422893255312e-11       5.336774492826e-12 
   51       1.873713423195e-10       5.192339819553e-11       5.134397236078e-12 
   52       1.900015728289e-10       4.974576079742e-11       4.942802842049e-12 
   53       1.926545550044e-10       4.767906552271e-11       4.760154399544e-12 
   54       1.953318868050e-10       4.572102418242e-11       4.586217275263e-12 
   55       1.980354259463e-10       4.387093588747e-11       4.420988050221e-12 
   56       2.007658376935e-10       4.212469107126e-11       4.264173360740e-12 
   57       2.035224987379e-10       4.047455204919e-11       4.115170955759e-12 
   58       2.063034010756e-10       3.890893357805e-11       3.973050754152e-12 
   59       2.091063327148e-10       3.741558940813e-11       3.836833756944e-12 
   60       2.119329583041e-10       3.599253447975e-11       3.706447443532e-12 
   61       2.147855179494e-10       3.463927586375e-11       3.581959162719e-12 
   62       2.176655819440e-10       3.335352792752e-11       3.463289120627e-12 
   63       2.205739979284e-10       3.213110835180e-11       3.350201534786e-12 
   64       2.235108380507e-10       3.096583414748e-11       3.242295788229e-12 
   65       2.264758800867e-10       2.985122521337e-11       3.139128237901e-12 
   66       2.294702879182e-10       2.878626790895e-11       3.040627492765e-12 
   67       2.324951935463e-10       2.777068983366e-11       2.946751531403e-12 
   68       2.355511573391e-10       2.680320756864e-11       2.857359713989e-12 
   69       2.386381301274e-10       2.588147325406e-11       2.772207591050e-12 
   70       2.417554153014e-10       2.500202116660e-11       2.690941712225e-12 
   71       2.449016309057e-10       2.416021429675e-11       2.613094435021e-12 
   72       2.480754052345e-10       2.335143538471e-11       2.538201829943e-12 
   73       2.512777024227e-10       2.257504341937e-11       2.466195133111e-12 
   74       2.545098768311e-10       2.183108358198e-11       2.397075401405e-12 
   75       2.577729583039e-10       2.111908549339e-11       2.330794733447e-12 
   76       2.610676310102e-10       2.043803820374e-11       2.267253888771e-12 
   77       2.643942122873e-10       1.978636518214e-11       2.206299907011e-12 
   78       2.677526314826e-10       1.916189930637e-11       2.147723727069e-12 
   79       2.711424087965e-10       1.856185785254e-11       2.091257806303e-12 
   80       2.745630126741e-10       1.798353214472e-11       2.036644414816e-12 
   81       2.780150500052e-10       1.742654945632e-11       1.983859415031e-12 
   82       2.814992449662e-10       1.689096010654e-11       1.932923180751e-12 
   83       2.850160648999e-10       1.637654609583e-11       1.883832318334e-12 
   84       2.885657061687e-10       1.588280933005e-11       1.836558594669e-12 
   85       2.921480800067e-10       1.540895984456e-11       1.791047865154e-12 
   86       2.957627983728e-10       1.495390402838e-11       1.747219001671e-12 
   87       2.994091598035e-10       1.451623284834e-11       1.704962820562e-12 
   88       3.030861352647e-10       1.409421007314e-11       1.664141010611e-12 
   89       3.067927327124e-10       1.368618469621e-11       1.624620264496e-12 
   90       3.105291871465e-10       1.329192801631e-11       1.586383145932e-12 
   91       3.142959320408e-10       1.291148558109e-11       1.549432719783e-12 
   92       3.180932288990e-10       1.254476631502e-11       1.513758359753e-12 
   93       3.219211587809e-10       1.219153709853e-11       1.479335203760e-12 
   94       3.257796138286e-10       1.185141734715e-11       1.446123609306e-12 
   95       3.296682887925e-10       1.152387359071e-11       1.414068608844e-12 
   96       3.335866725579e-10       1.120821405251e-11       1.383099365149e-12 
   97       3.375340396707e-10       1.090358322844e-11       1.353128626689e-12 
   98       3.415094418638e-10       1.060895646621e-11       1.324052182992e-12 
   99       3.455119481425e-10       1.032337406417e-11       1.295773085814e-12 
  100       3.495414221585e-10       1.004669311983e-11       1.268279404446e-12 
  101       3.535978397145e-10       9.778932599382e-12       1.241576523251e-12 
  102       3.576810446363e-10       9.520040832790e-12       1.215663117059e-12 
  103       3.617907433121e-10       9.269892996257e-12       1.190530906729e-12 
  104       3.659264992308e-10       9.028288594647e-12       1.166164414708e-12 
  105       3.700877275220e-10       8.794948943923e-12       1.142540720595e-12 
  106       3.742736894942e-10       8.569514653582e-12       1.119629216700e-12 
  107       3.784834871741e-10       8.351543109093e-12       1.097391363606e-12 
  108       3.827160578457e-10       8.140505954327e-12       1.075780445730e-12 
  109       3.869701685894e-10       7.935786573996e-12       1.054741326884e-12 
  110       3.912446289017e-10       7.736818547145e-12       1.034223399351e-12 
  111       3.955389711996e-10       7.543526547623e-12       1.014221839044e-12 
  112       3.998528475913e-10       7.355937420363e-12       9.947411972226e-13 
  113       4.041858163009e-10       7.174043135171e-12       9.757825654886e-13 
  114       4.085373383502e-10       6.997799654629e-12       9.573434610140e-13 
  115       4.129067742416e-10       6.827125801994e-12       9.394177117669e-13 
  116       4.172933806397e-10       6.661902129097e-12       9.219953417389e-13 
  117       4.216963070544e-10       6.501969784246e-12       9.050624561729e-13 
  118       4.261145925225e-10       6.347129380125e-12       8.886011267897e-13 
  119       4.305471622907e-10       6.197139861692e-12       8.725892770152e-13 
  120       4.349928244974e-10       6.051717374083e-12       8.570005672079e-13 
  121       4.394502668551e-10       5.910534130510e-12       8.418042798860e-13 
  122       4.439180533330e-10       5.773217280163e-12       8.269652049543e-13 
  123       4.483947939239e-10       5.639429009150e-12       8.124515476991e-13 
  124       4.528796830969e-10       5.509119674419e-12       7.982599259288e-13 
  125       4.573720172385e-10       5.382301752221e-12       7.843930416257e-13 
  126       4.618710251732e-10       5.258970721859e-12       7.708518642735e-13 
  127       4.663758662072e-10       5.139104572721e-12       7.576355792071e-13 
  128       4.708856281724e-10       5.022663311302e-12       7.447415359609e-13 
  129       4.753993254710e-10       4.909588468234e-12       7.321651966180e-13 
  130       4.799158971191e-10       4.799802605312e-12       7.199000841586e-13 
  131       4.844342047912e-10       4.693208822525e-12       7.079377308096e-13 
  132       4.889530308642e-10       4.589690265076e-12       6.962676263928e-13 
  133       4.934710764613e-10       4.489109630416e-12       6.848771666743e-13 
  134       4.979869594966e-10       4.391308675270e-12       6.737516017128e-13 
  135       5.024992127186e-10       4.296107722660e-12       6.628739842090e-13 
  136       5.070062817549e-10       4.203305168937e-12       6.522251178544e-13 
  137       5.115066578759e-10       4.112720010263e-12       6.417878409330e-13 
  138       5.159992959316e-10       4.024325432172e-12       6.315604867363e-13 
  139       5.204832361557e-10       3.938128173405e-12       6.215447245730e-13 
  140       5.249574722354e-10       3.854126528925e-12       6.117413255818e-13 
  141       5.294209502106e-10       3.772310129991e-12       6.021501385976e-13 
  142       5.338725673732e-10       3.692659724247e-12       5.927700660165e-13 
  143       5.383111711664e-10       3.615146955792e-12       5.835990396617e-13 
  144       5.427355580835e-10       3.539734145269e-12       5.746339966490e-13 
  145       5.471444725678e-10       3.466374069940e-12       5.658708552521e-13 
  146       5.515366059113e-10       3.395009743765e-12       5.573044907686e-13 
  147       5.559105951538e-10       3.325574197487e-12       5.489287113852e-13 
  148       5.602650219828e-10       3.257990258706e-12       5.407362340434e-13 
  149       5.645984116318e-10       3.192170331964e-12       5.327186603050e-13 
  150       5.689092317803e-10       3.128016178822e-12       5.248664522177e-13 
  151       5.731958914526e-10       3.065418697941e-12       5.171689081807e-13 
  152       5.774567399171e-10       3.004257705162e-12       5.096141388102e-13 
  153       5.816901901572e-10       2.944426613841e-12       5.021915742395e-13 
  154       5.858951045128e-10       2.885909519648e-12       4.948997990139e-13 
  155       5.900704429474e-10       2.828710893854e-12       4.877394027228e-13 
  156       5.942151412350e-10       2.772831234615e-12       4.807105028599e-13 
  157       5.983281104935e-10       2.718266973872e-12       4.738127335811e-13 
  158       6.024082367188e-10       2.665010384241e-12       4.670452344627e-13 
  159       6.064543803183e-10       2.613049485915e-12       4.604066392592e-13 
  160       6.104653756443e-10       2.562367953554e-12       4.538950646615e-13 
  161       6.144400305278e-10       2.512945023183e-12       4.475080990548e-13 
  162       6.183771258125e-10       2.464755399088e-12       4.412427912766e-13 
  163       6.222754148878e-10       2.417769160711e-12       4.350956393748e-13 
  164       6.261336232230e-10       2.371951669548e-12       4.290625793657e-13 
  165       6.299504479006e-10       2.327263476038e-12       4.231389739921e-13 
  166       6.337245571501e-10       2.283660226467e-12       4.173196014811e-13 
  167       6.374545898818e-10       2.241092569859e-12       4.115986443023e-13 
  168       6.411391552200e-10       2.199506064870e-12       4.059696779257e-13 
  169       6.447768320371e-10       2.158841086690e-12       4.004256595797e-13 
  170       6.483661684871e-10       2.119032733932e-12       3.949589170095e-13 
  171       6.519057753014e-10       2.080023848923e-12       3.895628404771e-13 
  172       6.553946153823e-10       2.041805491760e-12       3.842371406159e-13 
  173       6.588317375748e-10       2.004379678328e-12       3.789830094804e-13 
  174       6.622161849951e-10       1.967746531376e-12       3.738014525062e-13 
  175       6.655469949464e-10       1.931904240912e-12       3.686932842164e-13 
  176       6.688231988352e-10       1.896849024606e-12       3.636591239293e-13 
  177       6.720438220877e-10       1.862575088183e-12       3.586993914652e-13 
  178       6.752078840658e-10       1.829074585825e-12       3.538143028539e-13 
  179       6.783143979834e-10       1.796337580565e-12       3.490038660417e-13 
  180       6.813623708223e-10       1.764352004688e-12       3.442678765988e-13 
  181       6.843508032490e-10       1.733103620126e-12       3.396059134262e-13 
  182       6.872786895302e-10       1.702575978860e-12       3.350173344632e-13 
  183       6.901450174497e-10       1.672750383313e-12       3.305012723943e-13 
  184       6.929487682238e-10       1.643605846750e-12       3.260566303566e-13 
  185       6.956889164182e-10       1.615119053678e-12       3.216820776470e-13 
  186       6.983644298639e-10       1.587264320241e-12       3.173760454291e-13 
  187       7.009742695733e-10       1.560013554617e-12       3.131367224408e-13 
  188       7.035173896567e-10       1.533336217419e-12       3.089620507013e-13 
  189       7.059927372380e-10       1.507199282091e-12       3.048497212182e-13 
  190       7.083992523716e-10       1.481567195308e-12       3.007971696948e-13 
  191       7.107359394129e-10       1.456408834307e-12       2.968021521186e-13 
  192       7.130020872855e-10       1.431719044243e-12       2.928645286886e-13 
  193       7.151970656130e-10       1.407498643793e-12       2.889846057413e-13 
  194       7.173202548982e-10       1.383747556903e-12       2.851625655237e-13 
  195       7.193710466736e-10       1.360464796078e-12       2.813984637976e-13 
  196       7.213488436513e-10       1.337648445683e-12       2.776922274446e-13 
  197       7.232530598727e-10       1.315295645226e-12       2.740436520707e-13 
  198       7.250831208590e-10       1.293402572661e-12       2.704523996112e-13 
  199       7.268384637609e-10       1.271964427677e-12       2.669179959350e-13 
  200       7.285185375087e-10       1.250975414991e-12       2.634398284496e-13 
  201       7.301228029624e-10       1.230428727643e-12       2.600171437060e-13 
  202       7.316507330615e-10       1.210316530293e-12       2.566490450028e-13 
  203       7.331018129752e-10       1.190629942506e-12       2.533344899915e-13 
  204       7.344755402524e-10       1.171359022054e-12       2.500722882810e-13 
  205       7.357714249716e-10       1.152492748206e-12       2.468610990422e-13 
  206       7.369889898910e-10       1.134019005022e-12       2.436994286130e-13 
  207       7.381277705986e-10       1.115924564645e-12       2.405856281025e-13 
  208       7.391873156620e-10       1.098195070598e-12       2.375178909962e-13 
  209       7.401671867786e-10       1.080815021076e-12       2.344942507607e-13 
  210       7.410669589255e-10       1.063767752236e-12       2.315125784479e-13 
  211       7.418862205097e-10       1.047035421498e-12       2.285705803003e-13 
  212       7.426245735178e-10       1.030598990833e-12       2.256657953553e-13 
  213       7.432816708527e-10       1.014441897166e-12       2.227961210375e-13 
  214       7.438573308364e-10       9.985613739644e-13       2.199614343857e-13 
  215       7.443514307327e-10       9.829578622630e-13       2.171620757282e-13 
  216       7.447638705025e-10       9.676313853099e-13       2.143983295366e-13 
  217       7.450945730515e-10       9.525815415679e-13       2.116704234197e-13 
  218       7.453434844783e-10       9.378074977146e-13       2.089785271189e-13 
  219       7.455105743219e-10       9.233079816429e-13       2.063227515025e-13 
  220       7.455958358101e-10       9.090812754613e-13       2.037031475605e-13 
  221       7.455992861071e-10       8.951252084941e-13       2.011197053994e-13 
  222       7.455209665617e-10       8.814371502818e-13       1.985723532366e-13 
  223       7.453609429549e-10       8.680140035816e-13       1.960609563956e-13 
  224       7.451193057478e-10       8.548521973677e-13       1.935853163001e-13 
  225       7.447961703299e-10       8.419476798314e-13       1.911451694691e-13 
  226       7.443916772667e-10       8.292959113817e-13       1.887401865116e-13 
  227       7.439059925476e-10       8.168918576458e-13       1.863699711210e-13 
  228       7.433393078339e-10       8.047299824688e-13       1.840340590702e-13 
  229       7.426918407068e-10       7.928042409148e-13       1.817319172059e-13 
  230       7.419638349152e-10       7.811080722669e-13       1.794629424437e-13 
  231       7.411555606236e-10       7.696343930274e-13       1.772264607622e-13 
  232       7.402673146599e-10       7.583755899185e-13       1.750217261986e-13 
  233       7.392994207638e-10       7.473235128824e-13       1.728479198424e-13 
  234       7.382522298340e-10       7.364694680816e-13       1.707041488309e-13 
  235       7.371261201767e-10       7.258042108995e-13       1.685894453433e-13 
  236       7.359214977533e-10       7.153179389405e-13       1.665027655960e-13 
  237       7.346387964281e-10       7.050002850306e-13       1.644429888368e-13 
