# dimensionless total lensed [l(l+1)/2pi] C_l's
# for l=2 to 2500, i.e. number of multipoles equal to 2499
#
# -> if you prefer output in CAMB/HealPix/LensPix units/order, set 'format' to 'camb' in input file
# -> if you don't want to see such a header, set 'headers' to 'no' in input file
# -> for CMB lensing (phi), these are C_l^phi-phi for the lensing potential.
#    Remember the conversion factors:
#    C_l^dd (deflection) = l(l+1) C_l^phi-phi
#    C_l^gg (shear/convergence) = 1/4 (l(l+1))^2 C_l^phi-phi
#
# 1:l     2:TT                     3:phiphi                 4:TPhi               
    2       1.242537963930e-10       8.204835471198e-09       3.961275892074e-10 
    3       1.193488739620e-10       5.158349093932e-09       2.855441533523e-10 
    4       1.141266322020e-10       3.603170672476e-09       2.182189267233e-10 
    5       1.100968503572e-10       2.692252359981e-09       1.735198174311e-10 
    6       1.072958058853e-10       2.102932389683e-09       1.418672602697e-10 
    7       1.055448127216e-10       1.695395584514e-09       1.184200790885e-10 
    8       1.046100937713e-10       1.400205040600e-09       1.005341981737e-10 
    9       1.042788849417e-10       1.178840534527e-09       8.659487965505e-11 
   10       1.044543803665e-10       1.007955792703e-09       7.549148243678e-11 
   11       1.049826076159e-10       8.539182618275e-10       6.678418283805e-11 
   12       1.057650951156e-10       7.466077261782e-10       5.914345254776e-11 
   13       1.067949514143e-10       6.584405791629e-10       5.292087186526e-11 
   14       1.079853094293e-10       5.850273908019e-10       4.753238006502e-11 
   15       1.093506614513e-10       5.231862990540e-10       4.297470183767e-11 
   16       1.107896304631e-10       4.705691131034e-10       3.901335978626e-11 
   17       1.123157258361e-10       4.254020947108e-10       3.553535348468e-11 
   18       1.139474841744e-10       3.861766887239e-10       3.251157494534e-11 
   19       1.156764043824e-10       3.522746824355e-10       2.989455762695e-11 
   20       1.174389043976e-10       3.224012233194e-10       2.755946101252e-11 
   21       1.192499954089e-10       2.960899719696e-10       2.546183842585e-11 
   22       1.211199858514e-10       2.727135599569e-10       2.355857959235e-11 
   23       1.230436944522e-10       2.519609213279e-10       2.187247802364e-11 
   24       1.249925320694e-10       2.333593293222e-10       2.041576117815e-11 
   25       1.269711832270e-10       2.166583481955e-10       1.912239510443e-11 
   26       1.289821665365e-10       2.015335157004e-10       1.789526895256e-11 
   27       1.310353222006e-10       1.879072383434e-10       1.673700481100e-11 
   28       1.331269919366e-10       1.756149908031e-10       1.567631772851e-11 
   29       1.352403623939e-10       1.643592098893e-10       1.473173014784e-11 
   30       1.373815016487e-10       1.540783629657e-10       1.389466102528e-11 
   31       1.395541710985e-10       1.446967223288e-10       1.313712376145e-11 
   32       1.417528402426e-10       1.360666060599e-10       1.242483998857e-11 
   33       1.439764436723e-10       1.281412840955e-10       1.175384712480e-11 
   34       1.462173647490e-10       1.208508014271e-10       1.112609482739e-11 
   35       1.484636248865e-10       1.140869668652e-10       1.054076130274e-11 
   36       1.507231635027e-10       1.078323708532e-10       9.998687632942e-12 
   37       1.530065869296e-10       1.020675654055e-10       9.498864961280e-12 
   38       1.553199918605e-10       9.673205713473e-11       9.036849482913e-12 
   39       1.576653477402e-10       9.174614981479e-11       8.606392147536e-12 
   40       1.600432213162e-10       8.709464389478e-11       8.205778542795e-12 
   41       1.624500033412e-10       8.276533669158e-11       7.833112379977e-12 
   42       1.648765181473e-10       7.872404450571e-11       7.484379990688e-12 
   43       1.673121442171e-10       7.492725114438e-11       7.154841037913e-12 
   44       1.697599298298e-10       7.136914196352e-11       6.844131333098e-12 
   45       1.722253234675e-10       6.804612185827e-11       6.552457591343e-12 
   46       1.747117344958e-10       6.494269395465e-11       6.279098191852e-12 
   47       1.772203125418e-10       6.203053167549e-11       6.022328235732e-12 
   48       1.797509646074e-10       5.927720107444e-11       5.779996789716e-12 
   49       1.823062602296e-10       5.667740046212e-11       5.551625897017e-12 
   50       1.848882480848e-10       5.422893255312e-11       5.336774492826e-12 
   51       1.874971607696e-10       5.192339819553e-11       5.134397236078e-12 
   52       1.901312573293e-10       4.974576079742e-11       4.942802842049e-12 
   53       1.927881290667e-10       4.767906552271e-11       4.760154399544e-12 
   54       1.954693736555e-10       4.572102418242e-11       4.586217275263e-12 
   55       1.981768484912e-10       4.387093588747e-11       4.420988050221e-12 
   56       2.009112186611e-10       4.212469107126e-11       4.264173360740e-12 
   57       2.036718608263e-10       4.047455204919e-11       4.115170955759e-12 
   58       2.064567671032e-10       3.890893357805e-11       3.973050754152e-12 
   59       2.092637253486e-10       3.741558940813e-11       3.836833756944e-12 
   60       2.120943983933e-10       3.599253447975e-11       3.706447443532e-12 
   61       2.149510239364e-10       3.463927586375e-11       3.581959162719e-12 
   62       2.178351696642e-10       3.335352792752e-11       3.463289120627e-12 
   63       2.207476804001e-10       3.213110835180e-11       3.350201534786e-12 
   64       2.236886252543e-10       3.096583414748e-11       3.242295788229e-12 
   65       2.266577785886e-10       2.985122521337e-11       3.139128237901e-12 
   66       2.296563000122e-10       2.878626790895e-11       3.040627492765e-12 
   67       2.326853167567e-10       2.777068983366e-11       2.946751531403e-12 
   68       2.357453840458e-10       2.680320756864e-11       2.857359713989e-12 
   69       2.388364471771e-10       2.588147325406e-11       2.772207591050e-12 
   70       2.419578036037e-10       2.500202116660e-11       2.690941712225e-12 
   71       2.451080650155e-10       2.416021429675e-11       2.613094435021e-12 
   72       2.482858534647e-10       2.335143538471e-11       2.538201829943e-12 
   73       2.514921286974e-10       2.257504341937e-11       2.466195133111e-12 
   74       2.547282411088e-10       2.183108358198e-11       2.397075401405e-12 
   75       2.579952164821e-10       2.111908549339e-11       2.330794733447e-12 
   76       2.612937348294e-10       2.043803820374e-11       2.267253888771e-12 
   77       2.646241092322e-10       1.978636518214e-11       2.206299907011e-12 
   78       2.679862646820e-10       1.916189930637e-11       2.147723727069e-12 
   79       2.713797169210e-10       1.856185785254e-11       2.091257806303e-12 
   80       2.748039302778e-10       1.798353214472e-11       2.036644414816e-12 
   81       2.782595092935e-10       1.742654945632e-11       1.983859415031e-12 
   82       2.817471763828e-10       1.689096010654e-11       1.932923180751e-12 
   83       2.852673972962e-10       1.637654609583e-11       1.883832318334e-12 
   84       2.888203669794e-10       1.588280933005e-11       1.836558594669e-12 
   85       2.924059954318e-10       1.540895984456e-11       1.791047865154e-12 
   86       2.960238935662e-10       1.495390402838e-11       1.747219001671e-12 
   87       2.996733590671e-10       1.451623284834e-11       1.704962820562e-12 
   88       3.033533622504e-10       1.409421007314e-11       1.664141010611e-12 
   89       3.070629099129e-10       1.368618469621e-11       1.624620264496e-12 
   90       3.108022331181e-10       1.329192801631e-11       1.586383145932e-12 
   91       3.145717605490e-10       1.291148558109e-11       1.549432719783e-12 
   92       3.183717487437e-10       1.254476631502e-11       1.513758359753e-12 
   93       3.222022736178e-10       1.219153709853e-11       1.479335203760e-12 
   94       3.260632219858e-10       1.185141734715e-11       1.446123609306e-12 
   95       3.299542830828e-10       1.152387359071e-11       1.414068608844e-12 
   96       3.338749400867e-10       1.120821405251e-11       1.383099365149e-12 
   97       3.378244616397e-10       1.090358322844e-11       1.353128626689e-12 
   98       3.418018933703e-10       1.060895646621e-11       1.324052182992e-12 
   99       3.458062980896e-10       1.032337406417e-11       1.295773085814e-12 
  100       3.498375335269e-10       1.004669311983e-11       1.268279404446e-12 
  101       3.538955695162e-10       9.778932599382e-12       1.241576523251e-12 
  102       3.579802437544e-10       9.520040832790e-12       1.215663117059e-12 
  103       3.620912563375e-10       9.269892996257e-12       1.190530906729e-12 
  104       3.662281642962e-10       9.028288594647e-12       1.166164414708e-12 
  105       3.703903761324e-10       8.794948943923e-12       1.142540720595e-12 
  106       3.745771463549e-10       8.569514653582e-12       1.119629216700e-12 
  107       3.787875700158e-10       8.351543109093e-12       1.097391363606e-12 
  108       3.830205772462e-10       8.140505954327e-12       1.075780445730e-12 
  109       3.872749277925e-10       7.935786573996e-12       1.054741326884e-12 
  110       3.915494245285e-10       7.736818547145e-12       1.034223399351e-12 
  111       3.958435967711e-10       7.543526547623e-12       1.014221839044e-12 
  112       4.001570945958e-10       7.355937420363e-12       9.947411972226e-13 
  113       4.044894744037e-10       7.174043135171e-12       9.757825654886e-13 
  114       4.088401956094e-10       6.997799654629e-12       9.573434610140e-13 
  115       4.132086173295e-10       6.827125801994e-12       9.394177117669e-13 
  116       4.175939950707e-10       6.661902129097e-12       9.219953417389e-13 
  117       4.219954774176e-10       6.501969784246e-12       9.050624561729e-13 
  118       4.264121027212e-10       6.347129380125e-12       8.886011267897e-13 
  119       4.308427957870e-10       6.197139861692e-12       8.725892770152e-13 
  120       4.352863645629e-10       6.051717374083e-12       8.570005672079e-13 
  121       4.397414968276e-10       5.910534130510e-12       8.418042798860e-13 
  122       4.442067568787e-10       5.773217280163e-12       8.269652049543e-13 
  123       4.486807543607e-10       5.639429009150e-12       8.124515476991e-13 
  124       4.531626797656e-10       5.509119674419e-12       7.982599259288e-13 
  125       4.576518244965e-10       5.382301752221e-12       7.843930416257e-13 
  126       4.621474123007e-10       5.258970721859e-12       7.708518642735e-13 
  127       4.666485973121e-10       5.139104572721e-12       7.576355792071e-13 
  128       4.711544620938e-10       5.022663311302e-12       7.447415359609e-13 
  129       4.756640156806e-10       4.909588468234e-12       7.321651966180e-13 
  130       4.801761916213e-10       4.799802605312e-12       7.199000841586e-13 
  131       4.846898460217e-10       4.693208822525e-12       7.079377308096e-13 
  132       4.892037555865e-10       4.589690265076e-12       6.962676263928e-13 
  133       4.937166156622e-10       4.489109630416e-12       6.848771666743e-13 
  134       4.982270382796e-10       4.391308675270e-12       6.737516017128e-13 
  135       5.027335501961e-10       4.296107722660e-12       6.628739842090e-13 
  136       5.072345909383e-10       4.203305168937e-12       6.522251178544e-13 
  137       5.117286466129e-10       4.112720010263e-12       6.417878409330e-13 
  138       5.162146711089e-10       4.024325432172e-12       6.315604867363e-13 
  139       5.206917049727e-10       3.938128173405e-12       6.215447245730e-13 
  140       5.251587424644e-10       3.854126528925e-12       6.117413255818e-13 
  141       5.296147304628e-10       3.772310129991e-12       6.021501385976e-13 
  142       5.340585673690e-10       3.692659724247e-12       5.927700660165e-13 
  143       5.384891020113e-10       3.615146955792e-12       5.835990396617e-13 
  144       5.429051325488e-10       3.539734145269e-12       5.746339966490e-13 
  145       5.473054053763e-10       3.466374069940e-12       5.658708552521e-13 
  146       5.516886140279e-10       3.395009743765e-12       5.573044907686e-13 
  147       5.560533980819e-10       3.325574197487e-12       5.489287113852e-13 
  148       5.603983420646e-10       3.257990258706e-12       5.407362340434e-13 
  149       5.647219743547e-10       3.192170331964e-12       5.327186603050e-13 
  150       5.690227660877e-10       3.128016178822e-12       5.248664522177e-13 
  151       5.732991300599e-10       3.065418697941e-12       5.171689081807e-13 
  152       5.775494196328e-10       3.004257705162e-12       5.096141388102e-13 
  153       5.817720515174e-10       2.944426613841e-12       5.021915742395e-13 
  154       5.859658892729e-10       2.885909519648e-12       4.948997990139e-13 
  155       5.901298935262e-10       2.828710893854e-12       4.877394027228e-13 
  156       5.942630008338e-10       2.772831234615e-12       4.807105028599e-13 
  157       5.983641232172e-10       2.718266973872e-12       4.738127335811e-13 
  158       6.024321476983e-10       2.665010384241e-12       4.670452344627e-13 
  159       6.064659358338e-10       2.613049485915e-12       4.604066392592e-13 
  160       6.104643232514e-10       2.562367953554e-12       4.538950646615e-13 
  161       6.144261191841e-10       2.512945023183e-12       4.475080990548e-13 
  162       6.183501060058e-10       2.464755399088e-12       4.412427912766e-13 
  163       6.222350387665e-10       2.417769160711e-12       4.350956393748e-13 
  164       6.260796447272e-10       2.371951669548e-12       4.290625793657e-13 
  165       6.298826228954e-10       2.327263476038e-12       4.231389739921e-13 
  166       6.336426435600e-10       2.283660226467e-12       4.173196014811e-13 
  167       6.373583478264e-10       2.241092569859e-12       4.115986443023e-13 
  168       6.410283471523e-10       2.199506064870e-12       4.059696779257e-13 
  169       6.446512228819e-10       2.158841086690e-12       4.004256595797e-13 
  170       6.482255257820e-10       2.119032733932e-12       3.949589170095e-13 
  171       6.517498697744e-10       2.080023848923e-12       3.895628404771e-13 
  172       6.552232228793e-10       2.041805491760e-12       3.842371406159e-13 
  173       6.586446397535e-10       2.004379678328e-12       3.789830094804e-13 
  174       6.620131695961e-10       1.967746531376e-12       3.738014525062e-13 
  175       6.653278560684e-10       1.931904240912e-12       3.686932842164e-13 
  176       6.685877372130e-10       1.896849024606e-12       3.636591239293e-13 
  177       6.717918453734e-10       1.862575088183e-12       3.586993914652e-13 
  178       6.749392071137e-10       1.829074585825e-12       3.538143028539e-13 
  179       6.780288431378e-10       1.796337580565e-12       3.490038660417e-13 
  180       6.810597682089e-10       1.764352004688e-12       3.442678765988e-13 
  181       6.840309910695e-10       1.733103620126e-12       3.396059134262e-13 
  182       6.869415143600e-10       1.702575978860e-12       3.350173344632e-13 
  183       6.897903345393e-10       1.672750383313e-12       3.305012723943e-13 
  184       6.925764418031e-10       1.643605846750e-12       3.260566303566e-13 
  185       6.952988200045e-10       1.615119053678e-12       3.216820776470e-13 
  186       6.979564465726e-10       1.587264320241e-12       3.173760454291e-13 
  187       7.005482924328e-10       1.560013554617e-12       3.131367224408e-13 
  188       7.030733219255e-10       1.533336217419e-12       3.089620507013e-13 
  189       7.055304927262e-10       1.507199282091e-12       3.048497212182e-13 
  190       7.079187557647e-10       1.481567195308e-12       3.007971696948e-13 
  191       7.102371259825e-10       1.456408834307e-12       2.968021521186e-13 
  192       7.124849006995e-10       1.431719044243e-12       2.928645286886e-13 
  193       7.146614575093e-10       1.407498643793e-12       2.889846057413e-13 
  194       7.167661850646e-10       1.383747556903e-12       2.851625655237e-13 
  195       7.187984832281e-10       1.360464796078e-12       2.813984637976e-13 
  196       7.207577632245e-10       1.337648445683e-12       2.776922274446e-13 
  197       7.226434477913e-10       1.315295645226e-12       2.740436520707e-13 
  198       7.244549713301e-10       1.293402572661e-12       2.704523996112e-13 
  199       7.261917800582e-10       1.271964427677e-12       2.669179959350e-13 
  200       7.278533321595e-10       1.250975414991e-12       2.634398284496e-13 
  201       7.294390979361e-10       1.230428727643e-12       2.600171437060e-13 
  202       7.309485599597e-10       1.210316530293e-12       2.566490450028e-13 
  203       7.323812132222e-10       1.190629942506e-12       2.533344899915e-13 
  204       7.337365652879e-10       1.171359022054e-12       2.500722882810e-13 
  205       7.350141364443e-10       1.152492748206e-12       2.468610990422e-13 
  206       7.362134598533e-10       1.134019005022e-12       2.436994286130e-13 
  207       7.373340817028e-10       1.115924564645e-12       2.405856281025e-13 
  208       7.383755613578e-10       1.098195070598e-12       2.375178909962e-13 
  209       7.393374715118e-10       1.080815021076e-12       2.344942507607e-13 
  210       7.402193983380e-10       1.063767752236e-12       2.315125784479e-13 
  211       7.410209416408e-10       1.047035421498e-12       2.285705803003e-13 
  212       7.417417150066e-10       1.030598990833e-12       2.256657953553e-13 
  213       7.423813827119e-10       1.014441897166e-12       2.227961210375e-13 
  214       7.429397729045e-10       9.985613739644e-13       2.199614343857e-13 
  215       7.434167723608e-10       9.829578622630e-13       2.171620757282e-13 
  216       7.438122906634e-10       9.676313853099e-13       2.143983295366e-13 
  217       7.441262604490e-10       9.525815415679e-13       2.116704234197e-13 
  218       7.443586376566e-10       9.378074977146e-13       2.089785271189e-13 
  219       7.445094017754e-10       9.233079816429e-13       2.063227515025e-13 
  220       7.445785560929e-10       9.090812754613e-13       2.037031475605e-13 
  221       7.445661279431e-10       8.951252084941e-13       2.011197053994e-13 
  222       7.444721689544e-10       8.814371502818e-13       1.985723532366e-13 
  223       7.442967552975e-10       8.680140035816e-13       1.960609563956e-13 
  224       7.440399879340e-10       8.548521973677e-13       1.935853163001e-13 
  225       7.437019928639e-10       8.419476798314e-13       1.911451694691e-13 
  226       7.432829213741e-10       8.292959113817e-13       1.887401865116e-13 
  227       7.427829502859e-10       8.168918576458e-13       1.863699711210e-13 
  228       7.422022822037e-10       8.047299824688e-13       1.840340590702e-13 
  229       7.415411457627e-10       7.928042409148e-13       1.817319172059e-13 
  230       7.407997958769e-10       7.811080722669e-13       1.794629424437e-13 
  231       7.399785139874e-10       7.696343930274e-13       1.772264607622e-13 
  232       7.390776083103e-10       7.583755899185e-13       1.750217261986e-13 
  233       7.380974140848e-10       7.473235128824e-13       1.728479198424e-13 
  234       7.370382938214e-10       7.364694680816e-13       1.707041488309e-13 
  235       7.359006375495e-10       7.258042108995e-13       1.685894453433e-13 
  236       7.346848630661e-10       7.153179389405e-13       1.665027655960e-13 
  237       7.333914161834e-10       7.050002850306e-13       1.644429888368e-13 
