# dimensionless total lensed [l(l+1)/2pi] C_l's
# for l=2 to 2500, i.e. number of multipoles equal to 2499
#
# -> if you prefer output in CAMB/HealPix/LensPix units/order, set 'format' to 'camb' in input file
# -> if you don't want to see such a header, set 'headers' to 'no' in input file
# -> for CMB lensing (phi), these are C_l^phi-phi for the lensing potential.
#    Remember the conversion factors:
#    C_l^dd (deflection) = l(l+1) C_l^phi-phi
#    C_l^gg (shear/convergence) = 1/4 (l(l+1))^2 C_l^phi-phi
#
# 1:l     2:TT                     3:EE                     4:TE                     5:BB                     6:phiphi                 7:TPhi                   8:Ephi               
    2       1.382223923624e-10       4.179594265541e-15       3.519372182342e-13       2.324046372793e-19       8.283456289599e-09       4.560258604906e-10      -1.842278457786e-12 
    3       1.306774501067e-10       5.354775084345e-15       3.955071351267e-13       4.648971009930e-19       5.087564789690e-09       3.225351228209e-10      -1.394818436789e-12 
    4       1.235951797259e-10       4.629581735307e-15       3.698021081547e-13       7.750222195005e-19       3.523428794889e-09       2.438133924343e-10      -9.127158316330e-13 
    5       1.182979325551e-10       3.087196799274e-15       3.148735913976e-13       1.162893086293e-18       2.621789023837e-09       1.923691799156e-10      -5.069476883207e-13 
    6       1.146660922266e-10       1.726139568276e-15       2.535629289175e-13       1.628647692573e-18       2.042744572373e-09       1.563745175474e-10      -2.081091879973e-13 
    7       1.122997351057e-10       9.337108045684e-16       1.990683729401e-13       2.172446797385e-18       1.644411873366e-09       1.299781567779e-10      -1.764965382118e-14 
    8       1.109182546382e-10       6.038956716926e-16       1.571587781164e-13       2.794471487842e-18       1.356595696706e-09       1.099771515456e-10       7.941240142983e-14 
    9       1.102733665664e-10       4.859240420041e-16       1.291080972985e-13       3.494920487216e-18       1.140650068017e-09       9.447336366200e-11       1.064370832725e-13 
   10       1.101344081850e-10       4.150255397755e-16       1.135879751347e-13       4.274007273886e-18       9.737527712498e-10       8.219939921811e-11       8.927893793137e-14 
   11       1.104422798492e-10       3.497799703608e-16       1.079364830504e-13       5.131957077622e-18       8.336128646284e-10       7.301393319583e-11       5.203125484695e-14 
   12       1.110455209717e-10       3.058306838847e-16       1.090962974862e-13       6.069003821256e-18       7.285559193034e-10       6.456132909018e-11       1.227602193590e-14 
   13       1.118936626039e-10       2.941758290977e-16       1.143826916668e-13       7.085387075543e-18       6.422893835883e-10       5.769582122033e-11      -1.798980178515e-14 
   14       1.129388431996e-10       3.068479315826e-16       1.217751829652e-13       8.181349092832e-18       5.704998765939e-10       5.171608902766e-11      -3.451225197454e-14 
   15       1.141681937732e-10       3.321041603690e-16       1.299848447569e-13       9.357131981238e-18       5.100629783861e-10       4.668613694012e-11      -3.750069242981e-14 
   16       1.155069335971e-10       3.674213079192e-16       1.383484094945e-13       1.061297507542e-17       4.586668585688e-10       4.235083295151e-11      -3.091273114784e-14 
   17       1.169818628295e-10       4.183285398588e-16       1.466478634036e-13       1.194911255302e-17       4.145686501527e-10       3.856726008307e-11      -1.994046394034e-14 
   18       1.185301108538e-10       4.902560675156e-16       1.551405571153e-13       1.336577124326e-17       3.762908512522e-10       3.526705324146e-11      -9.473443006341e-15 
   19       1.201630226497e-10       5.835301977757e-16       1.640485223072e-13       1.486316931862e-17       3.432160140421e-10       3.240305514424e-11      -2.116990477913e-15 
   20       1.218731969191e-10       6.961496741378e-16       1.735122503848e-13       1.644151380172e-17       3.140838543645e-10       2.986094813160e-11       4.181485631755e-16 
   21       1.236618813148e-10       8.274786260603e-16       1.834836198673e-13       1.810100097354e-17       2.884364492774e-10       2.759461665050e-11      -1.297275923707e-15 
   22       1.255030249151e-10       9.770301618258e-16       1.937754540886e-13       1.984181381369e-17       2.656565683126e-10       2.554693487412e-11      -5.509882538146e-15 
   23       1.274029683814e-10       1.144973531862e-15       2.040652537606e-13       2.166412400466e-17       2.454394903572e-10       2.370948105319e-11      -1.047325370258e-14 
   24       1.293559335573e-10       1.331524548071e-15       2.139406224196e-13       2.356808893114e-17       2.273238615319e-10       2.206575935849e-11      -1.433127990027e-14 
   25       1.313567311821e-10       1.536901283421e-15       2.230927275363e-13       2.555385430737e-17       2.110641092520e-10       2.059350183106e-11      -1.626980421814e-14 
   26       1.333877299829e-10       1.761477670011e-15       2.312565119827e-13       2.762155212406e-17       1.963421764009e-10       1.925577113766e-11      -1.595595180741e-14 
   27       1.354585115829e-10       2.006884236662e-15       2.383607216704e-13       2.977130753718e-17       1.830818283447e-10       1.804330235686e-11      -1.390103461144e-14 
   28       1.375717284223e-10       2.275375171984e-15       2.444179750520e-13       3.200323205759e-17       1.711224617404e-10       1.694072437879e-11      -1.111009311449e-14 
   29       1.397164329013e-10       2.569228591512e-15       2.494718073405e-13       3.431742375719e-17       1.601737909342e-10       1.592169064192e-11      -8.704423217104e-15 
   30       1.418992152895e-10       2.889535952076e-15       2.535701008265e-13       3.671397956704e-17       1.501755025007e-10       1.498514496144e-11      -7.073218010779e-15 
   31       1.441217880086e-10       3.236923445676e-15       2.567856754111e-13       3.919298649164e-17       1.410534113357e-10       1.413113357637e-11      -6.396858016142e-15 
   32       1.463761004421e-10       3.611963636026e-15       2.591854082702e-13       4.175452099286e-17       1.326632363650e-10       1.335265407588e-11      -6.762974846361e-15 
   33       1.486616179223e-10       4.015594176596e-15       2.606897523896e-13       4.439866026931e-17       1.249593135580e-10       1.264314330908e-11      -7.819272531293e-15 
   34       1.509719667383e-10       4.448843165894e-15       2.611600760039e-13       4.712547440849e-17       1.178734569605e-10       1.199029951930e-11      -8.978110981630e-15 
   35       1.532958524839e-10       4.912701171752e-15       2.604486141890e-13       4.993502623452e-17       1.113002485059e-10       1.137832315355e-11      -9.648694844293e-15 
   36       1.556402423902e-10       5.408063756709e-15       2.584518020214e-13       5.282738206836e-17       1.052226553396e-10       1.080513008312e-11      -9.767777050067e-15 
   37       1.580137364088e-10       5.935763231841e-15       2.550736341952e-13       5.580260445964e-17       9.962165637926e-11       1.027028817308e-11      -9.449095881844e-15 
   38       1.604195956468e-10       6.496578765690e-15       2.502108502819e-13       5.886074929178e-17       9.443826358092e-11       9.770055736655e-12      -8.846588305048e-15 
   39       1.628568228575e-10       7.091231404318e-15       2.437779701645e-13       6.200186752048e-17       8.959480302177e-11       9.299164042901e-12      -8.133764836725e-15 
   40       1.653254310756e-10       7.720376834284e-15       2.357939827739e-13       6.522601118767e-17       8.507645658573e-11       8.857662599897e-12      -7.426165611459e-15 
   41       1.678218812521e-10       8.384603443739e-15       2.263243135371e-13       6.853322939942e-17       8.087135150019e-11       8.445880380299e-12      -6.837424254968e-15 
   42       1.703369926772e-10       9.084429050893e-15       2.154591935081e-13       7.192356682823e-17       7.694622927115e-11       8.062376238823e-12      -6.501725443070e-15 
   43       1.728604043989e-10       9.820346347027e-15       2.032800649872e-13       7.539706270035e-17       7.325874908433e-11       7.704643569261e-12      -6.532349860645e-15 
   44       1.753968612868e-10       1.059298589698e-14       1.897429213949e-13       7.895374714137e-17       6.980323972705e-11       7.371857534362e-12      -6.879100154270e-15 
   45       1.779541241118e-10       1.140299703312e-14       1.747609827241e-13       8.259364386138e-17       6.657618400372e-11       7.062720666973e-12      -7.428385462889e-15 
   46       1.805382252393e-10       1.225100177745e-14       1.582357695443e-13       8.631677119892e-17       6.356248177793e-11       6.774577342196e-12      -8.040489596070e-15 
   47       1.831532613162e-10       1.313759386929e-14       1.400563055239e-13       9.012314215146e-17       6.073454687201e-11       6.503311964011e-12      -8.548040876930e-15 
   48       1.858013802316e-10       1.406327122145e-14       1.201209467848e-13       9.401276164110e-17       5.806080032687e-11       6.244537912410e-12      -8.801758118476e-15 
   49       1.884832213787e-10       1.502821304271e-14       9.841200720092e-14       9.798561732965e-17       5.553608850219e-11       5.997798265081e-12      -8.826507577884e-15 
   50       1.911972433116e-10       1.603243821838e-14       7.494079890061e-14       1.020416862667e-16       5.315828783835e-11       5.763374280917e-12      -8.706607565133e-15 
   51       1.939393477664e-10       1.707586213528e-14       4.972719023429e-14       1.061809373201e-16       5.091924386170e-11       5.541062951861e-12      -8.543253275558e-15 
   52       1.967026822611e-10       1.815829231291e-14       2.279996272656e-14       1.104033310657e-16       4.880434749029e-11       5.330141044659e-12      -8.455398680409e-15 
   53       1.994803058983e-10       1.927953330731e-14      -5.816505589658e-15       1.147088193281e-16       4.679712284107e-11       5.129676902854e-12      -8.549401508037e-15 
   54       2.022744459397e-10       2.043974314810e-14      -3.614703196001e-14       1.190973439210e-16       4.489535094624e-11       4.939642753509e-12      -8.816764395980e-15 
   55       2.050892774529e-10       2.163916094245e-14      -6.823173289313e-14       1.235688373902e-16       4.309835369678e-11       4.760025752119e-12      -9.211635615809e-15 
   56       2.079281928469e-10       2.287800583327e-14      -1.021135702129e-13       1.281232232110e-16       4.140213649288e-11       4.590484362249e-12      -9.679326132976e-15 
   57       2.107937245216e-10       2.415647721203e-14      -1.378385674234e-13       1.327604156627e-16       3.979917467545e-11       4.430326978428e-12      -1.015588177371e-14 
   58       2.136874675182e-10       2.547475493169e-14      -1.754560260742e-13       1.374803197038e-16       3.827819995774e-11       4.278490549034e-12      -1.056765539189e-14 
   59       2.166103931610e-10       2.683288214256e-14      -2.150044463628e-13       1.422828371600e-16       3.682730213423e-11       4.133828226190e-12      -1.084879665197e-14 
   60       2.195640507129e-10       2.823038154340e-14      -2.564649793942e-13       1.471678872529e-16       3.544456040228e-11       3.996098873586e-12      -1.099943605837e-14 
   61       2.225495085707e-10       2.966655023025e-14      -2.997975283338e-13       1.521353906253e-16       3.412950788584e-11       3.865169979220e-12      -1.104028086930e-14 
   62       2.255669250237e-10       3.114056554851e-14      -3.449538309589e-13       1.571852635348e-16       3.287993431750e-11       3.740718153991e-12      -1.099606140929e-14 
   63       2.286154841571e-10       3.265148132697e-14      -3.918771914212e-13       1.623174179415e-16       3.169178485231e-11       3.622218230079e-12      -1.089571061286e-14 
   64       2.316933317561e-10       3.419822411174e-14      -4.405022120102e-13       1.675317615974e-16       3.055905888169e-11       3.508932359327e-12      -1.077254356825e-14 
   65       2.347984913328e-10       3.577971331115e-14      -4.907689501193e-13       1.728282112713e-16       2.947546575772e-11       3.400113013275e-12      -1.065693779470e-14 
   66       2.379319816565e-10       3.739525966328e-14      -5.426694764377e-13       1.782067354799e-16       2.844002680858e-11       3.295686439200e-12      -1.055216901373e-14 
   67       2.410952468358e-10       3.904424467424e-14      -5.962107266132e-13       1.836673209917e-16       2.745248235904e-11       3.195694888271e-12      -1.045376364244e-14 
   68       2.442891984608e-10       4.072600385922e-14      -6.514010788441e-13       1.892099609369e-16       2.651158843856e-11       3.100090659558e-12      -1.035651682909e-14 
   69       2.475141789230e-10       4.243982644260e-14      -7.082504891442e-13       1.948346552643e-16       2.561506473951e-11       3.008731181677e-12      -1.025446222713e-14 
   70       2.507699247352e-10       4.418495505792e-14      -7.667706266078e-13       2.005414111966e-16       2.475954257538e-11       2.921374094435e-12      -1.014084176920e-14 
   71       2.540555298522e-10       4.596058544791e-14      -8.269750086748e-13       2.063302436872e-16       2.394051283904e-11       2.837672330477e-12      -1.000807544115e-14 
   72       2.573700294172e-10       4.776582745471e-14      -8.888699317166e-13       2.122011866090e-16       2.315348585561e-11       2.757268148010e-12      -9.850064313154e-15 
   73       2.607143622348e-10       4.959957998831e-14      -9.524249467769e-13       2.181543277930e-16       2.239784433479e-11       2.680107054830e-12      -9.669678586534e-15 
   74       2.640897204623e-10       5.146063140443e-14      -1.017596934710e-12       2.241897815710e-16       2.167363938829e-11       2.606175534312e-12      -9.472658946115e-15 
   75       2.674969404276e-10       5.334769492426e-14      -1.084338735111e-12       2.303076793285e-16       2.098042020621e-11       2.535404819459e-12      -9.265433309710e-15 
   76       2.709364801148e-10       5.525940745065e-14      -1.152599071425e-12       2.365081702057e-16       2.031720968407e-11       2.467668233699e-12      -9.055139872856e-15 
   77       2.744083966486e-10       5.719432838439e-14      -1.222322476065e-12       2.427914217989e-16       1.968248004985e-11       2.402778531689e-12      -8.849650153533e-15 
   78       2.779123237799e-10       5.915093844042e-14      -1.293449215519e-12       2.491576208618e-16       1.907412849105e-11       2.340485240119e-12      -8.657592036893e-15 
   79       2.814474493707e-10       6.112763846407e-14      -1.365915215466e-12       2.556069740067e-16       1.848945278173e-11       2.280471998511e-12      -8.488372819985e-15 
   80       2.850129587040e-10       6.312280203887e-14      -1.439657585546e-12       2.621397031409e-16       1.792582246413e-11       2.222434888901e-12      -8.349959965759e-15 
   81       2.886095026079e-10       6.513494643582e-14      -1.514632463381e-12       2.687560293211e-16       1.738288025034e-11       2.166338941041e-12      -8.241728817474e-15 
   82       2.922379443872e-10       6.716258933023e-14      -1.590800147255e-12       2.754561873622e-16       1.686068022603e-11       2.112201527590e-12      -8.160409028088e-15 
   83       2.958989029700e-10       6.920419746229e-14      -1.668119800062e-12       2.822404314474e-16       1.635901493724e-11       2.060014190286e-12      -8.102198333461e-15 
   84       2.995927390188e-10       7.125818644942e-14      -1.746549478121e-12       2.891090357319e-16       1.587740389808e-11       2.009741480541e-12      -8.062744073182e-15 
   85       3.033195410426e-10       7.332292059871e-14      -1.826046159982e-12       2.960622949469e-16       1.541508209841e-11       1.961319800043e-12      -8.037124711386e-15 
   86       3.070791115076e-10       7.539671271922e-14      -1.906565775237e-12       3.031005250031e-16       1.497098851152e-11       1.914656241345e-12      -8.019831357585e-15 
   87       3.108709529492e-10       7.747782393444e-14      -1.988063233329e-12       3.102240635946e-16       1.454375460181e-11       1.869627428465e-12      -8.004749287486e-15 
   88       3.146942540832e-10       7.956446349458e-14      -2.070492452365e-12       3.174332708026e-16       1.413169283251e-11       1.826078357481e-12      -7.985139463817e-15 
   89       3.185482005235e-10       8.165481334941e-14      -2.153804874284e-12       3.247285182428e-16       1.373319856868e-11       1.783860718041e-12      -7.955084954008e-15 
   90       3.224329930677e-10       8.374710669304e-14      -2.237944680624e-12       3.321101532392e-16       1.334805308931e-11       1.742957274383e-12      -7.914130493838e-15 
   91       3.263489643018e-10       8.583956145190e-14      -2.322852875854e-12       3.395785301164e-16       1.297630475280e-11       1.703374950325e-12      -7.863340059814e-15 
   92       3.302962593151e-10       8.793035680190e-14      -2.408468740255e-12       3.471340215823e-16       1.261786857235e-11       1.665106525268e-12      -7.803900179923e-15 
   93       3.342748266741e-10       9.001763335179e-14      -2.494729836048e-12       3.547770191598e-16       1.227252091687e-11       1.628130066270e-12      -7.737123400466e-15 
   94       3.382844093972e-10       9.209949332646e-14      -2.581572013533e-12       3.625079336191e-16       1.193989421181e-11       1.592408360114e-12      -7.664451752913e-15 
   95       3.423245359294e-10       9.417400075026e-14      -2.668929417221e-12       3.703271954100e-16       1.161947164006e-11       1.557888345381e-12      -7.587460220736e-15 
   96       3.463945111162e-10       9.623918163031e-14      -2.756734491966e-12       3.782352550938e-16       1.131058184284e-11       1.524500544519e-12      -7.507860206263e-15 
   97       3.504934071787e-10       9.829302413986e-14      -2.844917989103e-12       3.862325837756e-16       1.101239362055e-11       1.492158495913e-12      -7.427502997512e-15 
   98       3.546200546877e-10       1.003334788015e-13      -2.933408972577e-12       3.943196735362e-16       1.072391063362e-11       1.460758185956e-12      -7.348383235044e-15 
   99       3.587733328855e-10       1.023585057116e-13      -3.022136233508e-12       4.024970405534e-16       1.044419976100e-11       1.430202848166e-12      -7.272238983909e-15 
  100       3.629531070812e-10       1.043662234485e-13      -3.111032749238e-12       4.107652340350e-16       1.017312453647e-11       1.400482596104e-12      -7.199279820692e-15 
  101       3.671594078806e-10       1.063547816943e-13      -3.200031870203e-12       4.191248293594e-16       9.910706236347e-12       1.371605067206e-12      -7.129284193201e-15 
  102       3.713921383546e-10       1.083223168200e-13      -3.289065990758e-12       4.275764259591e-16       9.656897054110e-12       1.343570804837e-12      -7.061985338271e-15 
  103       3.756510686431e-10       1.102669526387e-13      -3.378066572390e-12       4.361206477846e-16       9.411577633486e-12       1.316372997849e-12      -6.997069858966e-15 
  104       3.799358305570e-10       1.121868011591e-13      -3.466964166917e-12       4.447581437698e-16       9.174554601538e-12       1.289997220127e-12      -6.934176301795e-15 
  105       3.842459121816e-10       1.140799633392e-13      -3.555688439698e-12       4.534895882963e-16       8.945558101756e-12       1.264421170138e-12      -6.872893733915e-15 
  106       3.885806524795e-10       1.159445298395e-13      -3.644168192836e-12       4.623156816583e-16       8.724239327136e-12       1.239614410485e-12      -6.812760320342e-15 
  107       3.929392358935e-10       1.177785817770e-13      -3.732331388384e-12       4.712371505275e-16       8.510168053275e-12       1.215538107450e-12      -6.753261901160e-15 
